,date,ATR,,
0,4/1/19,4.65,,
1,4/2/19,4.379285714285735,,
2,4/3/19,5.487142857142849,,
3,4/4/19,4.810428571428576,,
4,4/5/19,5.492142857142848,,
5,4/8/19,5.433571428571448,,
6,4/9/19,4.451428571428559,,
7,4/10/19,4.367771428571436,,
8,4/11/19,4.124142857142837,,
9,4/12/19,4.770714285714312,,
10,4/15/19,4.095714285714308,,
11,4/16/19,3.991428571428559,,
12,4/17/19,3.9242857142857184,,
13,4/18/19,2.481428571428552,,
14,4/22/19,2.209285714285715,,
15,4/23/19,4.195714285714266,,
16,4/24/19,3.6942857142857366,,
17,4/25/19,3.259285714285681,,
18,4/26/19,3.662114285714296,,
19,4/29/19,3.891428571428552,,
20,4/30/19,3.764999999999966,,
21,5/1/19,4.175714285714268,,
22,5/2/19,3.4264285714285814,,
23,5/3/19,2.9157142857142566,,
24,5/6/19,4.559285714285737,,
25,5/7/19,6.442857142857142,,
26,5/8/19,5.090714286,,
27,5/9/19,8.225714285714272,,
28,5/10/19,9.418571428571417,,
29,5/13/19,10.722142857142854,,
30,5/14/19,8.478571428571412,,
31,5/15/19,8.580714285714269,,
32,5/16/19,5.623571428571422,,
33,5/17/19,5.393571428571444,,
34,5/20/19,5.278571428571423,,
35,5/21/19,3.502142857142851,,
36,5/22/19,3.3828571428571235,,
37,5/23/19,5.683571428571428,,
38,5/24/19,3.8521428571428737,,
39,5/28/19,5.436428571428564,,
40,5/29/19,7.442857142857158,,
41,5/30/19,5.9235714285714165,,
42,5/31/19,7.505714285714264,,
43,6/3/19,9.307442857142869,,
44,6/4/19,6.743571428571422,,
45,6/5/19,4.740714285714298,,
46,6/6/19,5.077142857142876,,
47,6/7/19,7.310000000000035,,
48,6/10/19,8.736900000000007,,
49,6/11/19,9.247071429,,
50,6/12/19,7.003214285714291,,
51,6/13/19,7.104285714285745,,
52,6/14/19,6.697142857142869,,
53,6/17/19,6.157142857142893,,
54,6/18/19,8.550714285714289,,
55,6/19/19,7.707857142857124,,
56,6/20/19,8.911764285714302,,
57,6/21/19,6.730714285714279,,
58,6/24/19,4.974999999999986,,
59,6/25/19,4.561428571428597,,
60,6/26/19,3.229642857142847,,
61,6/27/19,2.6042857142857208,,
62,6/28/19,3.018571428571444,,
63,7/1/19,5.199285714285736,,
64,7/2/19,4.27,,
65,7/3/19,5.789285714285707,,
66,7/5/19,5.240714285714274,,
67,7/8/19,4.366057142857138,,
68,7/9/19,3.7649999999999744,,
69,7/10/19,4.755000000000028,,
70,7/11/19,4.4178571428571285,,
71,7/12/19,5.004285714,,
72,7/15/19,4.887857142857135,,
73,7/16/19,4.124999999999992,,
74,7/17/19,3.431428571428569,,
75,7/18/19,3.1521428571428607,,
76,7/19/19,3.3407142857142924,,
77,7/22/19,2.0307142857142657,,
78,7/23/19,2.2114285714285296,,
79,7/24/19,3.0642857142857247,,
80,7/25/19,2.600714286,,
81,7/26/19,3.017857142857163,,
82,7/29/19,2.4178571428571485,,
83,7/30/19,2.2442857142857195,,
84,7/31/19,6.093571428571429,,
85,8/1/19,7.074285714285736,,
86,8/2/19,7.9142857142857315,,
87,8/5/19,16.16571428571425,,
88,8/6/19,12.933571428571453,,
89,8/7/19,14.53714285714283,,
90,8/8/19,8.945000000000002,,
91,8/9/19,8.000714286,,
92,8/12/19,9.078628571428595,,
93,8/13/19,9.297142857,,
94,8/14/19,11.242600000000014,,
95,8/15/19,9.440000000000014,,
96,8/16/19,7.463442857142861,,
97,8/19/19,4.616428571428559,,
98,8/20/19,4.465714286,,
99,8/21/19,3.959285714285719,,
100,8/22/19,5.533571428571447,,
101,8/23/19,9.351428571428537,,
102,8/26/19,4.797142857142871,,
103,8/27/19,5.352857142857159,,
104,8/28/19,5.200714285714282,,
105,8/29/19,4.7871428571428805,,
106,8/30/19,5.338471428571402,,
107,9/3/19,3.963571428571425,,
108,9/4/19,4.283571428571435,,
109,9/5/19,8.034285714,,
110,9/6/19,7.296428571428562,,
111,9/9/19,7.468571428571432,,
112,9/10/19,6.263571428571408,,
113,9/11/19,7.516428571428544,,
114,9/12/19,8.797142857142834,,
115,9/13/19,7.357142857142874,,
116,9/16/19,5.750814285714317,,
117,9/17/19,4.640714285714272,,
118,9/18/19,4.692857142857166,,
119,9/19/19,4.5306071428571295,,
120,9/20/19,4.129285714285702,,
121,9/23/19,2.881428571,,
122,9/24/19,5.530714285714274,,
123,9/25/19,5.172857143,,
124,9/26/19,3.999285714285727,,
125,9/27/19,5.759714285714291,,
126,9/30/19,3.4207142857142765,,
127,10/1/19,6.519999999999994,,
128,10/2/19,11.092142857142866,,
129,10/3/19,12.076428571428576,,
130,10/4/19,6.3807142857142924,,
131,10/7/19,4.707857142857149,,
132,10/8/19,7.001428571428562,,
133,10/9/19,5.122142857142856,,
134,10/10/19,4.762857142857131,,
135,10/11/19,5.3086285714285895,,
136,10/14/19,3.5228571428571587,,
137,10/15/19,6.090714285714276,,
138,10/16/19,5.4150000000000285,,
139,10/17/19,6.195714285714303,,
140,10/18/19,5.653571428571411,,
141,10/21/19,5.617142857,,
142,10/22/19,5.535714285714262,,
143,10/23/19,4.118928571428573,,
144,10/24/19,4.622121428571428,,
145,10/25/19,5.230714285714283,,
146,10/28/19,5.633571428571453,,
147,10/29/19,5.189285714285733,,
148,10/30/19,5.008571428571441,,
149,10/31/19,4.2557142857142765,,
150,11/1/19,5.182857142857143,,
151,11/4/19,6.315714285714291,,
152,11/5/19,5.659500000000032,,
153,11/6/19,4.7542857142856905,,
154,11/7/19,6.069285714285692,,
155,11/8/19,4.994314285714304,,
156,11/11/19,3.9128571428571695,,
157,11/12/19,4.547857143,,
158,11/13/19,3.717142857142871,,
159,11/14/19,3.2000000000000006,,
160,11/15/19,4.575714285714262,,
161,11/18/19,4.402142857142833,,
162,11/19/19,4.279285714285704,,
163,11/20/19,3.5485714285714454,,
164,11/21/19,2.531428571428567,,
165,11/22/19,2.359285714285708,,
166,11/25/19,3.377142857142855,,
167,11/26/19,3.781428571428543,,
168,11/27/19,4.444285714285733,,
169,11/29/19,3.7771428571428527,,
170,12/2/19,4.075000000000017,,
171,12/3/19,4.694285714285712,,
172,12/4/19,2.539285714285723,,
173,12/5/19,2.354285714285729,,
174,12/6/19,3.1507142857142947,,
175,12/9/19,2.989285714285724,,
176,12/10/19,2.757857143,,
177,12/11/19,2.3128571428571303,,
178,12/12/19,5.037142857142868,,
179,12/13/19,5.052142857142878,,
180,12/16/19,5.945714285714266,,
181,12/17/19,5.637857142857143,,
182,12/18/19,5.343571428571437,,
183,12/19/19,5.677857142857168,,
184,12/20/19,6.004200000000002,,
185,12/26/19,4.697857142857133,,
186,12/27/19,4.972857142857159,,
187,1/2/20,4.338571428571421,,
188,1/3/20,3.271428571428552,,
189,1/6/20,3.624285714285723,,
190,1/7/20,2.240714285714298,,
191,1/8/20,3.991428571428535,,
192,1/9/20,4.127142857142871,,
193,1/10/20,4.572857142857117,,
194,1/13/20,4.614285714285687,,
195,1/14/20,4.754428571428576,,
196,1/15/20,4.664285714285699,,
197,1/16/20,5.970000000000019,,
198,1/17/20,6.538571428571438,,
199,1/21/20,5.8678571428571535,,
200,1/22/20,5.915714285714273,,
201,1/23/20,5.294628571,,
202,1/24/20,6.142857143,,
203,1/27/20,5.719285714285685,,
204,1/28/20,4.763571428571429,,
205,1/29/20,3.5021428571428754,,
206,1/30/20,5.719999999999991,,
207,1/31/20,8.266428571428557,,
208,2/3/20,5.551428571428549,,
209,2/4/20,3.9299999999999775,,
210,2/5/20,5.062142857142825,,
211,2/6/20,5.598571428571424,,
212,2/7/20,5.607671428571426,,
213,2/10/20,6.4992857142857146,,
214,2/11/20,7.837142857142835,,
215,2/12/20,8.094285714,,
216,2/13/20,8.141428571428573,,
217,2/14/20,6.752857143,,
218,2/18/20,6.311985714285742,,
219,2/19/20,6.3842857142856895,,
220,2/20/20,6.989621428571427,,
221,2/21/20,4.772857142857158,,
222,2/24/20,14.176535714285706,,
223,2/25/20,22.294285714285724,,
224,2/26/20,21.610000000000017,,
225,2/27/20,32.341242857142866,,
226,2/28/20,40.87957142857142,,
227,3/2/20,31.74642857,,
228,3/3/20,28.45928571428572,,
229,3/4/20,21.688571428571457,,
230,3/5/20,20.82928571428573,,
231,3/6/20,24.98857143,,
232,3/9/20,37.65071428571429,,
233,3/10/20,34.35142857142856,,
234,3/11/20,32.565000000000005,,
235,3/12/20,49.89999999999999,,
236,3/13/20,44.81005714285713,,
237,3/16/20,51.74785714285713,,
238,3/17/20,47.98142857142858,,
239,3/18/20,52.16642857142857,,
240,3/19/20,44.315,,
241,3/20/20,42.79571428571429,,
242,3/23/20,46.007614285714304,,
243,3/24/20,29.600714285714268,,
244,3/25/20,27.29928571428573,,
245,3/26/20,23.562142857142856,,
246,3/27/20,20.35285714285714,,
247,3/30/20,18.73857142857144,,
248,3/31/20,17.953571428571404,,
249,4/1/20,18.57507142857144,,
250,4/2/20,13.497142857142858,,
251,4/3/20,13.20214285714285,,
252,4/6/20,20.664999999999992,,
253,4/7/20,25.591428571428548,,
254,4/8/20,24.755000000000003,,
255,4/9/20,26.01642857142857,,
256,4/13/20,19.39142857142856,,
257,4/14/20,23.130714285714262,,
258,4/15/20,20.651414285714285,,
259,4/16/20,15.890714285714266,,
260,4/17/20,19.79214285714287,,
261,4/20/20,18.0262,,
262,4/21/20,13.381428571428597,,
263,4/22/20,10.85071428571427,,
264,4/23/20,10.606428571428568,,
265,4/24/20,8.332142857142847,,
266,4/27/20,9.792142857142837,,
267,4/28/20,11.362857142857122,,
268,4/29/20,13.44285714285713,,
269,4/30/20,11.274614285714264,,
270,5/1/20,10.713828571428568,,
271,5/4/20,6.997142857142843,,
272,5/5/20,7.069285714285708,,
273,5/6/20,6.900714285714279,,
274,5/7/20,6.735714285714258,,
275,5/8/20,8.609285714285692,,
276,5/11/20,8.433571428571424,,
277,5/12/20,9.224285714,,
278,5/13/20,9.679285714285738,,
279,5/14/20,14.688571428571429,,
280,5/15/20,6.775714285714303,,
281,5/18/20,9.262857143,,
282,5/19/20,8.899285714285696,,
283,5/20/20,9.907142857142857,,
284,5/21/20,9.156728571428582,,
285,5/22/20,6.620714286,,
286,5/26/20,11.525714285714278,,
287,5/27/20,12.138571428571415,,
288,5/28/20,13.822857142857114,,
289,5/29/20,11.836428571428542,,
290,6/1/20,11.564285714285692,,
291,6/2/20,11.90357142857142,,
292,6/3/20,14.724285714285742,,
293,6/4/20,12.843571428571432,,
294,6/5/20,18.528571428571404,,
295,6/8/20,18.748571428571456,,
296,6/9/20,16.686328571428565,,
297,6/10/20,14.571171428571423,,
298,6/11/20,14.944285714285709,,
299,6/12/20,14.150714285714256,,
300,6/15/20,15.553571428571404,,
301,6/16/20,10.904285714285692,,
302,6/17/20,7.823571428571411,,
303,6/18/20,6.778571428571439,,
304,6/19/20,10.210714285714303,,
305,6/22/20,7.978571428571432,,
306,6/23/20,6.568514285714291,,
307,6/24/20,11.859999999999973,,
308,6/25/20,10.832142857142877,,
309,6/26/20,11.112857142857123,,
310,6/29/20,9.938571428571429,,
311,6/30/20,7.4549999999999965,,
312,7/1/20,4.932857142857135,,
313,7/2/20,7.222142857,,
314,7/6/20,8.370714285714294,,
315,7/7/20,8.337857142857123,,
316,7/8/20,7.192857142857158,,
317,7/9/20,8.659285714285735,,
318,7/10/20,8.342142857142855,,
319,7/13/20,12.45714285714284,,
320,7/14/20,10.414999999999992,,
321,7/15/20,10.541785714285735,,
322,7/16/20,7.996428571428554,,
323,7/17/20,7.747499999999994,,
324,7/20/20,8.963571428571425,,
325,7/21/20,9.235000000000005,,
326,7/22/20,8.439285714,,
327,7/23/20,8.486428571428585,,
328,7/24/20,4.956571428571449,,
329,7/27/20,4.629642857142893,,
330,7/28/20,4.432857142857118,,
331,7/29/20,5.081428571428591,,
332,7/30/20,5.432857142857175,,
333,7/31/20,5.570714286,,
334,8/3/20,5.897857142857142,,
335,8/4/20,5.899285714285712,,
336,8/5/20,7.263571428571412,,
337,8/6/20,8.665,,
338,8/7/20,8.361428571428563,,
339,8/10/20,8.590357142857126,,
340,8/11/20,10.20214285714288,,
341,8/12/20,9.395,,
342,8/13/20,8.259971428571419,,
343,8/14/20,6.574285714285728,,
344,8/17/20,6.024285714285692,,
345,8/18/20,6.117142857142876,,
346,8/19/20,5.719285714285726,,
347,8/20/20,4.912857142857137,,
348,8/21/20,4.150000000000026,,
349,8/24/20,6.350714285714288,,
350,8/25/20,6.748571428571414,,
351,8/26/20,9.517142857,,
352,8/27/20,10.534285714285696,,
353,8/28/20,10.265714285714315,,
354,8/31/20,9.606428571428584,,
355,9/1/20,10.147857142857122,,
356,9/2/20,14.661428571428573,,
357,9/3/20,15.41357142857144,,
358,9/4/20,14.343571428571412,,
359,9/8/20,13.671428571428567,,
360,9/9/20,10.127857142857124,,
361,9/10/20,13.664999999999967,,
362,9/11/20,14.127857142857149,,
363,9/14/20,9.477142857,,
364,9/15/20,8.310714285714292,,
365,9/16/20,8.826428571428588,,
366,9/17/20,10.308171428571436,,
367,9/18/20,13.644999999999971,,
368,9/21/20,17.575714285714263,,
369,9/22/20,12.182857142857118,,
370,9/23/20,14.114285714285684,,
371,9/24/20,14.365999999999987,,
372,9/25/20,12.182142857142862,,
373,9/28/20,6.266428571428569,,
374,9/29/20,6.088057142857123,,
375,9/30/20,8.094285714,,
376,10/1/20,7.470000000000011,,
377,10/2/20,7.918471428571446,,
378,10/5/20,8.392142857142842,,
379,10/6/20,11.092142857142877,,
380,10/7/20,9.756428571,,
381,10/8/20,10.865714285714306,,
382,10/9/20,12.948571428571457,,
383,10/12/20,18.138571428571414,,
384,10/13/20,14.692242857142867,,
385,10/14/20,12.782857142857154,,
386,10/15/20,9.445714285714274,,
387,10/16/20,9.461428571428566,,
388,10/19/20,10.355714285714262,,
389,10/20/20,6.981428571,,
390,10/21/20,8.134028571428606,,
391,10/22/20,6.5400000000000285,,
392,10/23/20,4.880000000000011,,
393,10/26/20,10.20857142857143,,
394,10/27/20,7.342857142857135,,
395,10/28/20,18.621900000000004,,
396,10/29/20,18.352142857142884,,
397,10/30/20,18.70928571428569,,
398,11/2/20,13.442857142857138,,
399,11/3/20,9.793571428571411,,
400,11/4/20,11.929285714285722,,
401,11/5/20,13.766428571428564,,
402,11/6/20,12.76999999999999,,
403,11/9/20,24.512857142857133,,
404,11/10/20,15.010714285714288,,
405,11/11/20,16.10285714285714,,
406,11/12/20,15.575342857142877,,
407,11/13/20,15.842857142857117,,
408,11/16/20,17.81428571428568,,
409,11/17/20,14.827142857142867,,
410,11/18/20,13.024999999999991,,
411,11/19/20,8.920000000000016,,
412,11/20/20,6.267142857142874,,
413,11/23/20,6.025714285714271,,
414,11/24/20,7.974285714285713,,
415,11/25/20,6.117857142857166,,
416,11/27/20,6.011428571428586,,
417,11/30/20,5.745714286,,
418,12/1/20,8.068571428571435,,
419,12/2/20,6.862857142857125,,
420,12/3/20,7.029285714285712,,
421,12/4/20,7.823571428571451,,
422,12/7/20,7.2064285714285745,,
423,12/8/20,7.853571428571399,,
424,12/9/20,7.919285714,,
425,12/10/20,5.409285714,,
426,12/11/20,4.672271428571447,,
427,12/14/20,5.807857142857131,,
428,12/15/20,4.489285714285679,,
429,12/16/20,4.438000000000025,,
430,12/17/20,4.8871428571428295,,
431,12/18/20,4.572142857142841,,
432,12/21/20,16.430000000000007,,
433,12/22/20,3.2544214285714594,,
434,12/23/20,2.881428571428582,,
435,12/24/20,2.417857142857128,,
436,12/28/20,4.199999999999968,,
437,12/29/20,5.597142857142854,,
438,12/30/20,4.209285714285735,,
439,12/31/20,5.536428571428583,,
440,1/4/21,10.641428571428564,,
441,1/5/21,4.654285714285704,,
442,1/6/21,8.227142857,,
443,1/7/21,9.030714285714255,,
444,1/8/21,10.188571428571432,,
445,1/11/21,8.628807142857122,,
446,1/12/21,7.644285714285721,,
447,1/13/21,7.389285714285718,,
448,1/14/21,6.798571428571413,,
449,1/15/21,5.558571428571424,,
450,1/19/21,4.847142857142875,,
451,1/20/21,8.355714285714308,,
452,1/21/21,7.487857142857133,,
453,1/22/21,6.305557142857168,,
454,1/25/21,7.367142857142856,,
455,1/26/21,5.777857142857163,,
456,1/27/21,9.633571428571432,,
457,1/28/21,6.840714286,,
458,1/29/21,11.815000000000015,,
459,2/1/21,8.808571428571403,,
460,2/2/21,5.725714285714296,,
461,2/3/21,5.628571428571413,,
462,2/4/21,6.756428571,,
464,2/8/21,8.904285714285711,,
465,2/9/21,8.798571428571409,,
466,2/10/21,10.209285714285684,,
467,2/11/21,9.102857143,,
468,2/12/21,9.451428571,,
469,2/16/21,9.866428571,,
470,2/18/21,7.033928571428553,,
471,2/19/21,5.293571428571413,,
472,2/22/21,4.571428571,,
473,2/23/21,10.111071428571432,,
474,2/24/21,7.005714285714317,,
475,2/25/21,11.22181428571426,,
476,2/26/21,11.56214285714283,,
477,3/1/21,6.366428571428563,,
478,3/2/21,5.4578571428571365,,
479,3/3/21,8.185714286,,
480,3/4/21,16.44142857142857,,
481,3/5/21,15.335714285714293,,
482,3/8/21,7.822142857142844,,
483,3/9/21,6.635000000000015,,
484,3/10/21,6.634942857142826,,
485,3/11/21,10.147142857142834,,
486,3/12/21,8.486428571,,
487,3/15/21,10.478571428571437,,
488,3/16/21,10.917142857142844,,
489,3/17/21,10.748571428571426,,
490,3/18/21,9.555714285714307,,
491,3/19/21,7.637928571428595,,
492,3/22/21,7.489999999999981,,
493,3/23/21,7.320714285714254,,
494,3/24/21,6.944999999999977,,
495,3/25/21,8.762142857142882,,
496,3/26/21,6.808571429,,
497,3/29/21,5.392142857142858,,
498,3/30/21,3.997142857142864,,
499,3/31/21,5.077142857142856,,
500,4/1/21,7.037857142857157,,
501,4/5/21,12.636428571428567,,
502,4/6/21,12.114285714285728,,
503,4/7/21,11.24214285714284,,
504,4/8/21,11.56428571,,
505,4/9/21,13.217857142857165,,
506,4/12/21,12.062857142857156,,
507,4/13/21,11.986142857142855,,
508,4/14/21,10.802857142857125,,
509,4/15/21,11.006428571428598,,
510,4/16/21,11.200000000000026,,
511,4/19/21,9.057857142857149,,
512,4/20/21,7.502492857142856,,
513,4/21/21,7.042142857142868,,
514,4/22/21,6.893571428571407,,
515,4/23/21,7.036428571428567,,
516,4/26/21,5.018571428571456,,
517,4/27/21,4.372142857142843,,
518,4/28/21,4.483571428571428,,
519,4/29/21,5.992857142857174,,
520,4/30/21,3.628571428571462,,
521,5/3/21,3.984285714285692,,
522,5/4/21,5.593571428571421,,
523,5/5/21,3.2928571428571405,,
524,5/6/21,5.803571429,,
525,5/7/21,6.097857142857139,,
526,5/10/21,5.930714285714296,,
527,5/11/21,7.502142857142851,,
528,5/12/21,13.294999999999996,,
529,5/13/21,10.05928571428573,,
530,5/14/21,5.784285714285711,,
531,5/17/21,5.071428571428551,,
532,5/18/21,6.197142857142873,,
533,5/19/21,10.198571428571444,,
534,5/20/21,6.3328571428571285,,
535,5/21/21,5.488571428571427,,
536,5/24/21,6.227857142857147,,
537,5/25/21,6.302142857142842,,
538,5/26/21,5.230714285714307,,
539,5/27/21,5.826428571428603,,
540,5/28/21,6.208571429,,
541,6/1/21,7.370714285714318,,
542,6/2/21,4.870000000000017,,
543,6/3/21,4.656428571,,
544,6/4/21,5.505714286,,
545,6/7/21,4.924285714285686,,
546,6/8/21,4.880714285714264,,
547,6/9/21,3.9428571428571257,,
548,6/10/21,4.824999999999989,,
549,6/11/21,3.7914285714285785,,
550,6/14/21,4.410714285714286,,
551,6/15/21,4.027857142857117,,
552,6/16/21,5.122857142857133,,
553,6/17/21,4.137857142857139,,
554,6/18/21,7.232721428571442,,
555,6/21/21,6.620714285714281,,
556,6/22/21,4.528571428571444,,
557,6/23/21,2.503571428571441,,
558,6/24/21,3.1692857142857185,,
559,6/25/21,4.393585714285682,,
560,6/28/21,4.667142857142827,,
561,6/29/21,5.0457142857142765,,
562,6/30/21,5.003571428571389,,
563,7/1/21,6.382142857142867,,
564,7/2/21,9.332142857142868,,
565,7/6/21,8.971428571428552,,
566,7/7/21,8.805714285714268,,
567,7/8/21,6.916428571428587,,
568,7/9/21,7.832857142857108,,
569,7/12/21,7.846428571428581,,
570,7/13/21,7.416428571428538,,
571,7/14/21,6.7028571428571455,,
572,7/15/21,4.770714285714242,,
573,7/16/21,5.941428571,,
574,7/19/21,11.511671428571406,,
575,7/20/21,9.085,,
576,7/21/21,4.574135714285701,,
577,7/22/21,3.3950000000000222,,
578,7/23/21,6.630714285714297,,
579,7/26/21,6.7114285714285495,,
580,7/27/21,6.152142857142853,,
581,7/28/21,5.651428571428584,,
582,7/29/21,6.206428571428587,,
583,7/30/21,5.129285714285722,,
584,8/2/21,6.019285714285729,,
585,8/3/21,6.927857142857103,,
586,8/4/21,5.083992857142854,,
587,8/5/21,4.8242857142857405,,
588,8/6/21,4.346428571428577,,
589,8/9/21,3.536428571428595,,
590,8/10/21,3.544285714285723,,
591,8/11/21,3.3605714285714408,,
592,8/12/21,4.535771428571443,,
593,8/13/21,4.675714285714292,,
594,8/16/21,5.949285714285732,,
595,8/17/21,4.8807142857142605,,
596,8/18/21,6.123928571428564,,
597,8/19/21,6.779285714285708,,
598,8/20/21,4.609285714,,
599,8/23/21,6.011928571,,
600,8/24/21,4.8285714285714425,,
601,8/25/21,5.291285714285705,,
602,8/26/21,4.802142857142859,,
603,8/27/21,5.978571428571399,,
604,8/30/21,7.385714285714272,,
605,8/31/21,6.280714285714282,,
606,9/1/21,6.351785714285716,,
607,9/2/21,6.818571428571427,,
608,9/3/21,6.141428571428556,,
609,9/7/21,5.177585714,,
610,9/8/21,4.467857142857143,,
611,9/9/21,4.647142857142829,,
612,9/10/21,6.4950000000000045,,
613,9/13/21,6.465714286,,
614,9/14/21,7.189285714285684,,
615,9/15/21,6.9535714285714425,,
616,9/16/21,6.355714285714312,,
617,9/17/21,8.338571429,,
618,9/20/21,19.009999999999987,,
619,9/21/21,13.92142857142858,,
620,9/22/21,12.714928571428551,,
621,9/23/21,8.550714286,,
622,9/24/21,6.590714285714308,,
623,9/27/21,5.253571428571454,,
624,9/28/21,10.739285714285725,,
625,9/29/21,8.202857142857129,,
626,9/30/21,12.551428571428591,,
627,10/1/21,13.084814285714264,,
628,10/4/21,12.397857142857124,,
629,10/5/21,9.258571428571448,,
630,10/6/21,9.964935714285676,,
631,10/7/21,7.263571428571437,,
632,10/8/21,5.968571428571421,,
633,10/11/21,7.31,,
634,10/12/21,5.715000000000044,,
635,10/13/21,6.236428571428568,,
636,10/14/21,7.997142857142884,,
637,10/15/21,10.917857142857132,,
638,10/18/21,11.584285714285729,,
639,10/19/21,13.29142857142855,,
640,10/20/21,13.582000000000026,,
641,10/21/21,13.43828571428572,,
642,10/22/21,12.715714285714297,,
643,10/25/21,12.280714285714266,,
644,10/26/21,13.030000000000005,,
645,10/27/21,10.856428571428593,,
646,10/28/21,10.607142857142836,,
647,10/29/21,10.25357142857143,,
648,11/1/21,9.234242857142831,,
649,11/2/21,8.768571428571448,,
650,11/3/21,10.325714285714266,,
651,11/4/21,10.455714285714285,,
652,11/5/21,12.55928571428569,,
653,11/8/21,10.793128571428586,,
654,11/9/21,9.576428571428568,,
655,11/10/21,8.264285714285702,,
656,11/11/21,5.255000000000016,,
657,11/12/21,6.451428571428579,,
658,11/15/21,5.7514285714285664,,
659,11/16/21,6.131428571428586,,
660,11/17/21,4.038571428571418,,
661,11/18/21,4.930714285714292,,
662,11/19/21,4.251428571,,
663,11/22/21,6.937142857142861,,
664,11/23/21,4.811428571428605,,
665,11/24/21,4.604999999999998,,
666,11/26/21,9.655,,
667,11/29/21,6.2928571428571205,,
668,11/30/21,11.604285714285693,,
669,12/1/21,16.802142857142837,,
670,12/2/21,15.17714285714285,,
671,12/3/21,16.420714285714272,,
672,12/6/21,11.710000000000004,,
673,12/7/21,11.593857142857129,,
674,12/8/21,8.067857142857147,,
675,12/9/21,8.041957143,,
676,12/10/21,9.139285714,,
677,12/13/21,8.920714285714293,,
678,12/14/21,8.584285714285715,,
679,12/15/21,12.248571428571434,,
680,12/16/21,11.639285714285707,,
681,12/17/21,9.586428571428574,,
682,12/20/21,12.05785714285715,,
683,12/21/21,9.786428571,,
684,12/22/21,7.455714285714293,,
685,12/23/21,7.192857142857142,,
686,12/27/21,10.875714285714285,,
687,12/28/21,11.530714285714282,,
688,12/29/21,10.84357142857142,,
689,12/30/21,10.671428571428562,,
690,12/31/21,8.610000000000001,,
691,1/3/22,9.299285714,,
692,1/4/22,9.859285714285736,,
693,1/5/22,11.79636429,,
694,1/6/22,9.720714285714276,,
695,1/10/22,15.557699999999985,,
696,1/11/22,11.356428571428571,,
697,1/12/22,6.647857142857142,,
698,1/13/22,11.427857142857144,,
699,1/14/22,11.500000000000016,,
700,1/18/22,14.81571428571428,,
701,1/19/22,17.364628571428586,,
702,1/20/22,22.955714285714283,,
703,1/21/22,26.16142857142858,,
704,1/24/22,40.04285714285715,,
705,1/25/22,30.86500000000002,,
706,1/26/22,28.333571428571418,,
707,1/27/22,25.16142857142857,,
708,1/28/22,25.217142857142864,,
709,1/31/22,17.523571428571408,,
710,2/1/22,14.205799999999996,,
711,2/2/22,13.876428571428573,,
712,2/3/22,12.620714285714325,,
713,2/4/22,12.704999999999988,,
714,2/7/22,9.805714286,,
715,2/8/22,10.908571428571426,,
716,2/9/22,13.22071428571428,,
717,2/10/22,14.489999999999984,,
718,2/11/22,14.86178571428573,,
719,2/14/22,12.872857142857171,,
720,2/15/22,7.678571428571421,,
721,2/16/22,8.595357142857154,,
722,2/17/22,13.11077142857142,,
723,2/18/22,15.334285714285729,,
724,2/22/22,19.707857142857133,,
725,2/23/22,22.24642857142855,,
726,2/24/22,31.09714285714287,,
727,2/25/22,15.724999999999978,,
728,2/28/22,12.84714285714286,,
729,3/1/22,14.47142857142857,,
730,3/2/22,11.012857142857168,,
731,3/3/22,9.872857142857148,,
732,3/4/22,9.532142857142864,,
733,3/7/22,16.767199999999995,,
734,3/8/22,18.274285714285707,,
735,3/9/22,10.706428571428576,,
736,3/10/22,11.028571428571436,,
737,3/11/22,12.217857142857156,,
738,3/14/22,13.78642857142856,,
739,3/15/22,12.327857142857122,,
740,3/16/22,13.144999999999994,,
741,3/17/22,13.933571428571415,,
742,3/18/22,16.506428571428575,,
743,3/21/22,16.799999999999976,,
744,3/22/22,19.78357142857141,,
745,3/23/22,17.460714285714293,,
746,3/24/22,18.305,,
747,3/25/22,18.189285714285727,,
748,3/28/22,18.388571428571453,,
749,3/29/22,21.78571428571428,,
750,3/30/22,18.77392857142857,,
751,3/31/22,15.498571428571411,,
752,4/1/22,9.680714286,,
753,4/4/22,9.177857142857173,,
754,4/5/22,10.17571428571428,,
755,4/6/22,9.175714286,,
756,4/7/22,9.711428571428598,,
757,4/8/22,7.428571428571429,,
758,4/11/22,12.366428571428584,,
759,4/13/22,13.333571428571457,,
760,4/14/22,13.057885714285703,,
761,4/18/22,12.81714285714284,,
762,4/19/22,11.516428571428564,,
763,4/20/22,7.192142857142833,,
764,4/21/22,13.675714285714257,,
765,4/22/22,18.437857142857137,,
766,4/25/22,22.32857142857145,,
767,4/26/22,23.111428571428583,,
768,4/27/22,22.26285714285716,,
769,4/28/22,19.73499999999998,,
770,4/29/22,23.437142857142884,,
771,5/2/22,25.890000000000025,,
772,5/3/22,17.014999999999993,,
773,5/4/22,20.02009285714288,,
774,5/5/22,21.07428571428572,,
775,5/6/22,19.139999999999983,,
776,5/9/22,25.07,,
777,5/10/22,23.967142857142864,,
778,5/11/22,24.10571428571431,,
779,5/12/22,27.394285714285736,,
780,5/13/22,17.26714285714285,,
781,5/16/22,14.97714285714285,,
782,5/17/22,12.860771428571423,,
783,5/18/22,18.87785714285713,,
784,5/19/22,17.819999999999983,,
785,5/20/22,23.96928571428568,,
786,5/23/22,13.166428571428582,,
787,5/24/22,13.065714285714296,,
788,5/25/22,9.587857142857144,,
789,5/26/22,11.800000000000024,,
790,5/27/22,17.820814285714317,,
791,5/31/22,17.908571428571413,,
792,6/1/22,17.217857142857152,,
793,6/2/22,17.336428571428563,,
794,6/3/22,12.909285714285735,,
795,6/6/22,14.15769999999998,,
796,6/7/22,15.038571428571446,,
797,6/8/22,12.015714285714283,,
798,6/9/22,13.325714285714296,,
799,6/10/22,17.182528571428573,,
800,6/13/22,31.991428571428564,,
801,6/14/22,33.28571428571431,,
802,6/15/22,31.644999999999992,,
803,6/16/22,35.54224285714285,,
804,6/17/22,34.063571428571414,,
805,6/21/22,23.93607142857142,,
806,6/22/22,23.912142857142868,,
807,6/23/22,18.882142857142867,,
808,6/24/22,18.91428571,,
809,6/27/22,15.758571428571445,,
810,6/28/22,18.521428571428608,,
811,6/29/22,9.626428571,,
812,6/30/22,10.891442857142872,,
813,7/1/22,10.068571428571406,,
814,7/5/22,11.080000000000032,,
815,7/6/22,9.673571429,,
816,7/7/22,11.667785714285705,,
817,7/8/22,10.589285714285698,,
818,7/11/22,6.808571428571436,,
819,7/12/22,8.524285714285725,,
820,7/13/22,9.571285714285706,,
821,7/14/22,12.244242857142831,,
822,7/15/22,6.019285714285701,,
823,7/18/22,9.024285714285677,,
824,7/19/22,10.792142857142869,,
825,7/20/22,12.524285714285709,,
826,7/21/22,13.991428571428546,,
827,7/22/22,14.303571428571436,,
828,7/25/22,9.857142857,,
829,7/26/22,8.470000000000002,,
830,7/27/22,14.954285714285708,,
831,7/28/22,17.37714285714288,,
832,7/29/22,21.17928571428569,,
833,8/1/22,19.47357142857146,,
834,8/2/22,17.290000000000003,,
835,8/3/22,17.135000000000012,,
836,8/4/22,14.222857142857125,,
837,8/5/22,11.990714285714262,,
838,8/8/22,13.320000000000013,,
839,8/9/22,8.252142857142847,,
840,8/10/22,12.809285714285696,,
841,8/11/22,15.718571428571416,,
842,8/12/22,16.048571428571403,,
843,8/15/22,15.570000000000022,,
844,8/16/22,15.734285714285727,,
845,8/17/22,12.700714285714271,,
846,8/18/22,10.65285714285715,,
847,8/19/22,8.982142857142833,,
848,8/22/22,9.510714285714313,,
849,8/23/22,9.320000000000022,,
850,8/24/22,9.540042857142865,,
851,8/25/22,9.225714285714297,,
852,8/26/22,17.755714285714276,,
853,8/29/22,18.29152857142856,,
854,8/30/22,22.19428571428572,,
855,8/31/22,21.50571428571427,,
856,9/1/22,23.80499999999997,,
857,9/2/22,22.48571429,,
858,9/6/22,20.26214285714284,,
859,9/7/22,17.54214285714286,,
860,9/8/22,13.038571428571434,,
861,9/9/22,10.41357142857144,,
862,9/12/22,11.086428571428597,,
863,9/13/22,14.160000000000004,,
864,9/14/22,10.249285714285708,,
865,9/15/22,10.795714285714306,,
866,9/16/22,14.692857142857134,,
867,9/19/22,13.783028571428568,,
868,9/20/22,13.729285714285728,,
869,9/21/22,17.635000000000012,,
870,9/22/22,18.799285714285723,,
871,9/23/22,27.04857142857141,,
872,9/26/22,25.81152857142857,,
873,9/27/22,26.04285714285714,,
874,9/28/22,22.71428571,,
875,9/29/22,21.615000000000016,,
876,9/30/22,20.799285714285705,,
877,10/3/22,17.817857142857168,,
878,10/4/22,15.355928571428567,,
879,10/5/22,13.06142857142856,,
880,10/6/22,11.12642857142859,,
881,10/7/22,14.35712142857142,,
882,10/10/22,11.673571428571403,,
883,10/11/22,12.176428571428582,,
884,10/12/22,9.84955,,
885,10/13/22,21.453571428571404,,
886,10/14/22,14.59642857142858,,
887,10/17/22,12.677099999999989,,
888,10/18/22,12.590714285714276,,
889,10/19/22,10.16357142857144,,
890,10/20/22,10.814285714285717,,
891,10/21/22,13.289999999999996,,
892,10/24/22,13.987857142857138,,
893,10/25/22,18.292714285714283,,
894,10/26/22,19.834999999999976,,
895,10/27/22,16.362142857142857,,
896,10/28/22,19.40285714285712,,
897,10/31/22,15.399999999999974,,
898,11/1/22,15.83428571428569,,
899,11/2/22,17.096428571428568,,
900,11/3/22,10.59142857142855,,
901,11/4/22,11.694285714285712,,
902,11/7/22,8.426428571428577,,
903,11/8/22,9.661428571,,
904,11/9/22,9.276428571428548,,
905,11/10/22,14.643857142857165,,
906,11/11/22,17.050000000000022,,
907,11/14/22,17.007757142857123,,
908,11/15/22,18.31,,
909,11/16/22,12.746428571428549,,
910,11/17/22,11.942142857142857,,
911,11/18/22,12.614999999999991,,
912,11/21/22,10.532857142857122,,
913,11/22/22,11.652607142857144,,
914,11/23/22,11.632142857142869,,
915,11/25/22,9.612142857142883,,
916,11/28/22,8.487857142857138,,
917,11/29/22,6.451428571428567,,
918,11/30/22,14.199999999999989,,
919,12/1/22,11.591428571428574,,
920,12/2/22,9.598571428571448,,
921,12/5/22,8.527857142857142,,
922,12/6/22,10.262142857142878,,
923,12/7/22,7.769285714,,
924,12/8/22,7.291485714285732,,
925,12/9/22,7.532142857142881,,
926,12/12/22,7.962571428571441,,
927,12/13/22,13.340714285714297,,
928,12/14/22,10.31,,
929,12/15/22,11.420714285714295,,
930,12/16/22,16.804642857142834,,
931,12/19/22,18.552857142857167,,
932,12/20/22,17.012142857142834,,
933,12/21/22,12.125714285714292,,
934,12/22/22,17.88240000000001,,
935,12/23/22,12.555714285714313,,
936,12/27/22,10.198571428571444,,
937,12/28/22,12.824999999999976,,
938,12/29/22,9.968571428571453,,
939,12/30/22,8.930714285714272,,
940,1/3/23,10.947642857142844,,
941,1/4/23,7.377142857142851,,
942,1/5/23,4.572142857142852,,
943,1/6/23,10.036257142857163,,
944,1/9/23,11.296428571428551,,
945,1/10/23,7.999999999999976,,
946,1/11/23,11.62500000000002,,
947,1/12/23,13.99357142857144,,
948,1/13/23,13.575714285714314,,
949,1/17/23,13.015000000000024,,
950,1/18/23,13.733571428571445,,
951,1/19/23,7.484999999999993,,
952,1/20/23,10.021428571428588,,
953,1/23/23,12.307142857142834,,
954,1/24/23,9.099285714,,
955,1/25/23,9.663571428571418,,
956,1/26/23,9.82,,
957,1/27/23,11.641428571428602,,
958,1/30/23,8.245000000000013,,
959,1/31/23,8.755714285714268,,
960,2/1/23,15.069285714285728,,
961,2/2/23,17.264285714285716,,
962,2/3/23,15.152857142857174,,
963,2/6/23,9.822857142857154,,
964,2/7/23,13.578571428571438,,
965,2/8/23,9.449285714285688,,
966,2/9/23,10.580714285714278,,
967,2/10/23,6.223571428571432,,
968,2/13/23,6.925000000000016,,
969,2/14/23,7.989428571428566,,
970,2/15/23,6.2557142857142685,,
971,2/16/23,6.025714285714315,,
972,2/17/23,6.942857142857126,,
973,2/21/23,11.885714285714288,,
974,2/22/23,12.77857142857144,,
975,2/23/23,12.659999999999991,,
976,2/24/23,13.597857142857151,,
977,2/27/23,10.591428571428574,,
978,2/28/23,9.409285714285724,,
979,3/1/23,10.635000000000003,,
980,3/2/23,11.592857142857156,,
981,3/3/23,8.667142857,,
982,3/6/23,7.969999999999991,,
983,3/7/23,8.545357142857155,,
984,3/8/23,5.170000000000008,,
985,3/9/23,11.770000000000042,,
986,3/10/23,13.778571428571444,,
987,3/13/23,16.515000000000025,,
988,3/14/23,10.525714285714274,,
989,3/15/23,12.042142857142885,,
990,3/16/23,11.885714285714284,,
991,3/17/23,8.807142857142837,,
992,3/20/23,7.318571428571444,,
993,3/21/23,7.496428571428599,,
994,3/22/23,12.010714285714297,,
995,3/23/23,10.085714285714287,,
996,3/24/23,7.618571429,,
997,3/27/23,6.730714285714295,,
998,3/28/23,5.145000000000006,,
999,3/29/23,8.557142857,,
1000,3/30/23,9.967857142857156,,
1001,3/31/23,13.808571428571408,,
1002,4/3/23,14.007142857142854,,
1003,4/4/23,13.44571428571429,,
1004,4/5/23,10.029285714285695,,
1005,4/6/23,9.641428571,,
1006,4/10/23,8.858571428571407,,
1007,4/11/23,8.391428571428564,,
1008,4/12/23,8.914285714285727,,
1009,4/13/23,9.238028571428528,,
1010,4/14/23,8.693571428571394,,
1011,4/17/23,6.311071428571405,,
1012,4/18/23,6.503528571428599,,
1013,4/19/23,5.245714285714257,,
1014,4/20/23,4.204999999999992,,
1015,4/21/23,3.454285714285703,,
1016,4/24/23,3.487142857142832,,
1017,4/25/23,6.257857142857168,,
1018,4/26/23,7.447142857142881,,
1019,4/27/23,6.524285714285704,,
1020,4/28/23,5.760714285714276,,
1021,5/1/23,5.737142857142865,,
1022,5/2/23,7.5,,
1023,5/3/23,6.777142857142873,,
1024,5/4/23,7.939999999999982,,
1025,5/5/23,6.214285714285743,,
1026,5/8/23,3.947857143,,
1027,5/9/23,3.4425714285714344,,
1028,5/10/23,6.683571428571448,,
1029,5/11/23,4.174285714285702,,
1030,5/12/23,5.773571428571423,,
1031,5/15/23,4.468571428571421,,
1032,5/16/23,3.529999999999993,,
1033,5/17/23,5.832857142857169,,
1034,5/18/23,7.946428571428588,,
1035,5/19/23,8.573571428571455,,
1036,5/22/23,7.778571428571411,,
1037,5/23/23,6.644571428571412,,
1038,5/24/23,4.517642857,,
1039,5/25/23,4.765650000000027,,
1040,5/26/23,7.425714285714272,,
1041,5/30/23,7.690714285714271,,
1042,5/31/23,5.106428571428588,,
1043,6/1/23,8.102857142857156,,
1044,6/2/23,11.684285714285725,,
1045,6/5/23,11.487142857142873,,
1046,6/6/23,9.324342857,,
1047,6/7/23,9.564285714285717,,
1048,6/8/23,9.156428571,,
1049,6/9/23,10.14500000000001,,
1050,6/12/23,11.13,,
1051,6/13/23,12.853571428571415,,
1052,6/14/23,13.066914285714278,,
1053,6/15/23,15.97214285714283,,
1054,6/16/23,14.032085714285705,,
1055,6/20/23,8.946428571428584,,
1056,6/21/23,6.863571428571443,,
1057,6/22/23,6.087857142857136,,
1058,6/23/23,5.509285714285702,,
1059,6/26/23,5.806428571428585,,
1060,6/27/23,6.335714285714293,,
1061,6/28/23,4.583571428571413,,
1062,6/29/23,4.162142857142824,,
1063,6/30/23,7.637857142857151,,
1064,7/3/23,6.572142857142841,,
1065,7/5/23,6.161142857142876,,
1066,7/6/23,4.904285714285733,,
1067,7/7/23,6.106428571428556,,
1068,7/10/23,4.250357142857134,,
1069,7/11/23,5.779285714285736,,
1070,7/12/23,8.389185714285698,,
1071,7/13/23,10.428571428571423,,
1072,7/14/23,10.242857142857153,,
1073,7/17/23,9.468571428571437,,
1074,7/18/23,11.28951429,,
1075,7/19/23,11.246871428571438,,
1076,7/20/23,9.353571428571453,,
1077,7/21/23,7.695714285714298,,
1078,7/24/23,7.879000000000019,,
1079,7/25/23,8.458571428571442,,
1080,7/26/23,7.873571428571442,,
1081,7/27/23,10.138571428571424,,
1082,7/28/23,7.068514285714258,,
1083,7/31/23,5.361428571,,
1084,8/1/23,3.894285714285717,,
1085,8/2/23,5.430092857142861,,
1086,8/3/23,6.558571428571428,,
1087,8/4/23,8.237142857142869,,
1088,8/7/23,5.797857143,,
1089,8/8/23,8.063842857142832,,
1090,8/9/23,7.800685714,,
1091,8/10/23,8.923571428571437,,